0.090783
0.084307
0.114243
0.229590
0.283480
0.394920
0.561265
0.528870
0.608714
0.635447
0.662521
0.801455
0.906322
0.949937
0.900705
1.077229
1.063958
1.168664
1.205839
1.187511
1.272059
1.337907
1.418857
1.379343
1.312236
1.364577
1.411620
1.289190
1.327851
1.374013
1.409597
1.395013
1.228723
1.396925
1.255130
1.295030
1.280372
1.155638
1.203816
0.964142
1.087891
0.939266
0.922764
0.949045
0.819712
0.828850
0.767388
0.703052
0.594212
0.451364
0.496774
0.344832
0.224641
0.115747
0.134360
0.036603
-0.005818
-0.140773
-0.059175
-0.112624
-0.282256
-0.244297
-0.320771
-0.513752
-0.409962
-0.409798
-0.530995
-0.630018
-0.609287
-0.699955
-0.648847
-0.686097
-0.748861
-0.771870
-0.741990
-0.827644
-0.806493
-0.729428
-0.822207
-0.937941
-0.724320
-0.821091
-0.793613
-0.774145
-0.757221
-0.773734
-0.711583
-0.745895
-0.694064
-0.553214
-0.635049
-0.482432
-0.546833
-0.428674
-0.463994
-0.355224
-0.273841
-0.216605
-0.240852
-0.107133
-0.086165
-0.063396
0.061764
0.084692
0.123658
0.246691
0.283435
0.318397
0.361109
0.392309
0.410649
0.428810
0.472188
0.585369
0.647668
0.590477
0.689945
0.652264
0.759125
0.787706
0.749823
0.842551
0.791881
0.852834
0.778138
0.812437
0.869084
0.926507
0.782429
0.784288
0.803757
0.825736
0.736479
0.813194
0.732309
0.699347
0.655680
0.627930
0.591935
0.473287
0.499374
0.455425
0.418760
0.361312
0.383444
0.279680
0.230979
0.164184
0.108514
0.034370
0.003229
-0.103958
-0.195773
-0.135379
-0.188418
-0.273715
-0.297342
-0.356292
-0.319904
-0.621848
-0.507882
-0.594405
-0.575891
-0.584007
-0.660697
-0.733273
-0.749733
-0.758598
-0.790370
-0.747347
-0.819079
-0.897462
-0.805891
-0.870710
-0.852104
-0.764820
-0.935782
-0.846696
-0.844516
-0.860135
-0.832336
-0.711249
-0.769782
-0.789591
-0.618785
-0.705066
-0.578246
-0.669621
-0.588923
-0.513623
-0.425488
-0.365298
-0.331341
-0.292268
-0.179562
-0.187107
-0.114965
-0.139930
-0.001483
0.061600
0.038214
0.170080
0.243972
0.303084
0.279683
0.344833
0.349723
0.496307
0.546348
0.517780
0.578176
0.563946
0.683340
0.733263
0.693251
0.720747
0.786629
0.801786
0.775911
0.710504
0.820828
0.862164
0.878516
0.896350
0.750030
0.730722
0.784813
0.863013
0.688744
0.713175
0.609837
0.722415
0.652654
0.519546
0.572126
0.465473
0.504706
0.469750
0.251272
0.229315
0.133855
0.155850
0.103439
0.057941
0.053771
-0.067975
-0.234010
-0.185163
-0.330878
-0.288184
-0.444048
-0.540029
-0.503399
-0.599938
-0.706750
-0.689945
-0.821748
-0.939688
-0.903615
-0.965118
-0.983825
-1.028364
-1.145679
-1.145593
-1.231924
-1.218329
-1.314090
-1.392855
-1.351382
-1.349664
-1.400895
-1.305967
-1.419741
-1.391970
-1.302737
-1.365803
-1.335300
-1.418202
-1.190239
-1.256870
-1.207278
-1.263536
-1.136865
-1.166012
-1.043724
-1.068368
-1.012711
-0.883775
-0.824032
-0.749750
-0.781997
-0.658914
-0.563468
-0.567364
-0.513578
-0.374921
-0.229180
-0.229706
-0.220367
-0.076906
0.075048
0.084729
0.229597
0.344835
0.293777
0.403577
0.485503
0.594271
0.586702
0.705094
0.787936
0.804972
0.905611
0.914325
1.026423
1.078966
1.020698
1.223808
1.125549
1.285396
1.267971
1.304562
1.279658
1.362493
1.340938
1.287862
1.401714
1.382510
1.357694
1.348591
1.326227
1.430490
1.326002
1.331583
1.253773
1.237416
1.232550
1.096966
1.119426
1.053076
0.966689
1.003637
0.941483
0.848374
0.879574
0.759369
0.713972
0.598239
0.607273
0.454215
0.368575
0.322259
0.302208
0.224021
0.160329
-0.004239
-0.067576
-0.067824
0.015314
-0.203702
-0.233198
-0.258714
-0.272548
-0.419563
-0.489946
-0.518425
-0.576661
-0.582260
-0.651378
-0.660660
-0.703976
-0.755011
-0.665038
-0.722995
-0.728970
-0.797053
-0.806013
-0.813349
-0.839871
-0.758402
-0.778810
-0.871730
-0.819575
-0.782901
-0.726960
-0.685423
-0.767356
-0.712324
-0.661460
-0.643226
-0.513475
-0.513188
-0.469184
-0.402370
-0.386503
-0.403697
-0.286721
-0.223821
-0.172401
-0.177328
-0.002579
0.037828
0.020008
0.113921
0.121539
0.215104
0.189869
0.290138
0.337109
0.392664
0.413952
0.434906
0.596299
0.555961
0.602900
0.574746
0.689032
0.671885
0.761598
0.842766
0.747543
0.838601
0.738802
0.872118
0.805561
0.764985
0.946363
0.829919
0.827003
0.885902
0.807468
0.782883
0.796606
0.669251
0.751187
0.688717
0.656657
0.582221
0.472199
0.624402
0.527864
0.470448
0.405876
0.304093
0.380055
0.291764
0.220426
0.108728
0.107736
0.064072
-0.013817
-0.079106
-0.140833
-0.113212
-0.190496
-0.181810
-0.358568
-0.311905
-0.444740
-0.465468
-0.510301
-0.570650
-0.553566
-0.654710
-0.679258
-0.751613
-0.769411
-0.807669
-0.787357
-0.797672
-0.840411
-0.782213
-0.829084
-0.855223
-0.968385
-0.849763
-0.750725
-0.808497
-0.813618
-0.788004
-0.850394
-0.806982
-0.810691
-0.688980
-0.699724
-0.702400
-0.638307
-0.605028
-0.556345
-0.516809
-0.486133
-0.402283
-0.362948
-0.357378
-0.254739
-0.260110
-0.227314
-0.058217
-0.020583
0.029120
0.111305
0.163612
0.165427
0.275556
0.362758
0.344537
0.396987
0.443142
0.497799
0.586528
0.613231
0.596746
0.681323
0.679831
0.660422
0.767639
0.751417
0.733627
0.808234
0.863834
0.776093
0.780005
0.843141
0.833582
0.841044
0.825754
0.805239
0.614208
0.821397
0.698798
0.641302
0.599459
0.605217
0.585669
0.510661
0.465320
0.452623
0.472455
0.376662
0.268251
0.218804
0.184783
0.102186
-0.023431
-0.067790
-0.131979
-0.117492
-0.266510
-0.294341
-0.392455
-0.439479
-0.557057
-0.562068
-0.646758
-0.754694
-0.650853
-0.822254
-0.825596
-0.925457
-1.001148
-1.087549
-1.031542
-1.090579
-1.181196
-1.115829
-1.234483
-1.339450
-1.250651
-1.392476
-1.310993
-1.383673
-1.403381
-1.380014
-1.414159
-1.422565
-1.425842
-1.323872
-1.297527
-1.326622
-1.197421
-1.174112
-1.095064
-1.239170
-1.079454
-1.181471
-0.975238
-1.047688
-0.954072
-0.811680
-0.790780
-0.767839
-0.634143
-0.617843
-0.608138
-0.478617
-0.422175
-0.402545
-0.211524
-0.152194
0.116880
-0.032258
0.131395
0.213214
0.215304
0.280630
0.323825
0.539939
0.550066
0.610371
0.679903
0.770309
0.788129
0.911970
0.943857
1.002443
1.016582
1.137257
1.149597
1.198208
1.205895
1.226277
1.329187
1.352931
1.277135
1.317734
1.386828
1.488861
1.301623
1.444383
1.362686
1.288436
1.322263
1.368413
1.316791
1.295008
1.267801
1.135490
1.184136
1.100280
1.102045
1.010349
0.955717
0.913543
0.876808
0.811954
0.746440
0.748332
0.643749
0.454748
0.480227
0.460143
0.394612
0.205489
0.232122
0.107884
0.141682
0.041567
-0.106295
-0.149242
-0.288970
-0.180103
-0.238104
-0.350873
-0.356813
-0.500125
-0.495520
-0.480793
-0.580324
-0.640114
-0.669388
-0.718625
-0.692867
-0.717530
-0.713684
-0.757253
-0.869565
-0.852000
-0.756687
-0.766318
-0.765616
-0.894468
-0.759781
-0.704429
-0.792717
-0.685435
-0.725973
-0.760752
-0.716467
-0.627826
-0.517346
-0.613126
-0.586912
-0.380088
-0.434621
-0.382309
-0.314184
-0.374996
-0.246237
-0.106282
-0.133309
-0.179131
0.020091
0.068531
0.112793
0.150908
0.139002
0.336571
0.246066
0.342915
0.357111
0.478659
0.468843
0.554968
0.588615
0.638131
0.551424
0.689748
0.703854
0.769023
0.824871
0.773226
0.788703
0.825008
0.816464
0.876072
0.924298
0.770674
0.863576
0.785467
0.856878
0.833237
0.681081
0.790975
0.757983
0.698851
0.700447
0.591852
0.547464
0.522464
0.539732
0.508848
0.486951
0.442333
0.413520
0.313433
0.279128
0.224446
0.167618
0.067154
0.059081
-0.038653
-0.018381
-0.102811
-0.223018
-0.170146
-0.232570
-0.341768
-0.327972
-0.339940
-0.414723
-0.527935
-0.459266
-0.531163
-0.589098
-0.679370
-0.744394
-0.595687
-0.841237
-0.807085
-0.881466
-0.772958
-0.909639
-0.876637
-0.835306
-0.932613
-0.848116
-0.812456
-0.756231
-0.941131
-0.861292
-0.732261
-0.658125
-0.794252
-0.667434
-0.636212
-0.633306
-0.540631
-0.614422
-0.494413
-0.497653
-0.497300
-0.479066
-0.287435
-0.311630
-0.218153
-0.122701
-0.149998
-0.065534
0.003890
0.080235
0.080408
0.187497
0.120592
0.266089
0.294928
0.385302
0.402884
0.400662
0.497976
0.544032
0.568460
0.561544
0.640285
0.751613
0.737611
0.786203
0.834824
0.771504
0.830869
0.768604
0.910612
0.774504
0.812629
0.755126
0.805186
0.747344
0.748554
0.790235
0.802141
0.770847
0.678153
0.611111
0.587024
0.572201
0.449329
0.427971
0.409305
0.376167
0.287844
0.346650
0.216000
0.154106
0.088029
0.075780
-0.016994
-0.115400
-0.241606
-0.216808
-0.344021
-0.334296
-0.433872
-0.556275
-0.555205
-0.709490
-0.662455
-0.737177
-0.754904
-0.945663
-0.915882
-1.026812
-1.131168
-1.049339
-1.144138
-1.209210
-1.306785
-1.321892
-1.300268
-1.291549
-1.311436
-1.258908
-1.309336
-1.356344
-1.308428
-1.331095
-1.354761
-1.228945
-1.242282
-1.252776
-1.281337
-1.250449
-1.342343
-1.196973
-1.207371
-1.165678
-1.043026
-0.996512
-0.971541
-0.961205
-0.820281
-0.714644
-0.683750
-0.583727
-0.541922
-0.610944
-0.408540
-0.490445
-0.263547
-0.232692
-0.114026
-0.082687
-0.026575
0.057869
0.137492
0.280593
0.212612
0.449849
0.442223
0.618607
0.595771
0.728104
0.818920
0.851288
0.856368
0.941242
0.988573
1.145384
1.153690
1.138842
1.283329
1.220285
1.169575
1.334924
1.416055
1.298462
1.273167
1.387551
1.404019
1.400695
1.293592
1.391938
1.378623
1.404387
1.320824
1.256138
1.271827
1.243867
1.186030
1.127733
1.143457
1.120068
0.971574
0.970394
0.893624
0.796663
0.729626
0.685574
0.746688
0.645046
0.573916
0.470315
0.425420
0.267599
0.319034
0.252724
0.177201
0.099537
0.019320
-0.021068
-0.144207
-0.198121
-0.288958
-0.335935
-0.363222
-0.361639
-0.389323
-0.474174
-0.588930
-0.515913
-0.617276
-0.646000
-0.761279
-0.794055
-0.734021
-0.750872
-0.777896
-0.881851
-0.815351
-0.706006
-0.756679
-0.758563
-0.786991
-0.771408
-0.777651
-0.822682
-0.762440
-0.786334
-0.671639
-0.678661
-0.699468
-0.603100
-0.562467
-0.581987
-0.516946
-0.392071
-0.398004
-0.407810
-0.287017
-0.246996
-0.203340
-0.123971
-0.026752
-0.021668
0.025480
0.105438
0.140263
0.169324
0.221816
0.322061
0.378828
0.463742
0.502663
0.482514
0.532955
0.536985
0.621920
0.653968
0.816056
0.650925
0.707749
0.815448
0.773639
0.812101
0.871194
0.813603
0.893246
0.813543
0.874787
0.855420
0.898035
0.831669
0.846079
0.745220
0.785995
0.790110
0.830356
0.633936
0.578808
0.669882
0.515832
0.619765
0.457855
0.441319
0.411232
0.335074
0.336526
0.315637
0.200138
0.080496
0.024381
-0.047479
-0.018970
0.028730
-0.119008
-0.125089
-0.248389
-0.317834
-0.267816
-0.351626
-0.532070
-0.458374
-0.435529
-0.499520
-0.591439
-0.689782
-0.679352
-0.711887
-0.739733
-0.742563
-0.803984
-0.836479
-0.798586
-0.819657
-0.918570
-0.920731
-0.827140
-0.816278
-0.801440
-0.772935
-0.920985
-0.825335
-0.749829
-0.737004
-0.761616
-0.692406
-0.616239
-0.628560
-0.491140
-0.510279
-0.496153
-0.464869
-0.356611
-0.345464
-0.311630
-0.219067
-0.287712
-0.197779
-0.065094
-0.070847
-0.012924
-0.012321
0.089944
0.097180
0.110755
0.239995
0.357281
0.355244
0.450408
0.465070
0.496589
0.529777
0.667854
0.654379
0.623963
0.580345
0.722910
0.781026
0.766491
0.824063
0.887174
0.690480
0.789542
0.892031
0.770540
0.810652
0.776707
0.843878
0.754764
0.755425
0.776039
0.800917
0.675211
0.627224
0.548802
0.579853
0.474161
0.406800
0.455989
0.443049
0.282959
0.276215
0.185768
0.124103
0.100811
0.080189
-0.081977
0.013111
-0.246591
-0.211596
-0.288455
-0.419690
-0.449353
-0.551865
-0.525590
-0.710186
-0.711047
-0.838826
-0.906912
-0.906422
-0.924291
-0.990323
-1.071680
-1.170171
-1.299455
-1.129702
-1.232248
-1.246765
-1.380736
-1.274575
-1.306993
-1.377755
-1.435197
-1.245179
-1.361268
-1.260892
-1.342397
-1.365481
-1.320319
-1.388543
-1.318841
-1.322230
-1.252343
-1.100740
-1.173856
-1.189360
-1.066569
-1.052320
-1.061147
-0.926923
-1.019660
-0.831664
-0.701108
-0.665105
-0.626728
-0.513178
-0.423720
-0.397359
-0.283739
-0.194287
-0.184409
-0.014391
0.015109
0.092244
0.124708
0.358663
0.249295
0.287862
0.515126
0.617905
0.622587
0.724619
0.764463
0.927611
0.893402
0.900165
1.108532
1.015453
1.062113
1.158295
1.260172
1.253745
1.268787
1.292163
1.278404
1.280639
1.296201
1.282067
1.373484
1.353556
1.327810
1.354088
1.322335
1.365620
1.385892
1.259845
1.286490
1.272959
1.202831
1.018665
1.126877
0.988064
1.055769
0.968881
0.833052
0.836116
0.821595
0.687767
0.669141
0.536208
0.514038
0.513275
0.334648
0.275052
0.207309
0.225061
0.085843
0.078669
0.026805
-0.052566
-0.170007
-0.159183
-0.306845
-0.311605
-0.363724
-0.438395
-0.421643
-0.484548
-0.524879
-0.586949
-0.651094
-0.671870
-0.706849
-0.675008
-0.731154
-0.747675
-0.745451
-0.677830
-0.765285
-0.803729
-0.862105
-0.924572
-0.834279
-0.716410
-0.818281
-0.735509
-0.708627
-0.613058
-0.710161
-0.633981
-0.625298
-0.638939
-0.578211
-0.537628
-0.505407
-0.420006
-0.277584
-0.371418
-0.254527
-0.200722
-0.216746
-0.128573
-0.086817
-0.013792
0.052293
0.093446
0.205910
0.205913
0.296785
0.390605
0.322543
0.399709
0.479538
0.502719
0.518238
0.546595
0.749457
0.673880
0.711535
0.695359
0.722653
0.741437
0.807225
0.788031
0.801721
0.841403
0.786761
0.709852
0.863728
0.836680
0.856201
0.738633
0.741877
0.812322
0.792178
0.835033
0.751023
0.696291
0.677875
0.573616
0.577239
0.553275
0.576993
0.430206
0.439168
0.249297
0.317577
0.278879
0.208057
0.091471
0.158282
0.100961
-0.023974
-0.074361
-0.079057
-0.152885
-0.210181
-0.261828
-0.350444
-0.449060
-0.490022
-0.468949
-0.549483
-0.569165
-0.490732
-0.628801
-0.660178
-0.743056
-0.659295
-0.714217
-0.842190
-0.766099
-0.795805
-0.762133
-0.846755
-0.779251
-0.847380
-0.904211
-0.887750
-0.825917
-0.862862
-0.780300
-0.741806
-0.731050
-0.684097
-0.733098
-0.604835
-0.628844
-0.656846
-0.606430
-0.500357
-0.391597
-0.438097
-0.356730
-0.287418
-0.243717
-0.237053
-0.087748
-0.116617
-0.128690
0.027232
0.020744
0.105057
0.134111
0.140561
0.271094
0.193138
0.311856
0.445804
0.369411
0.494377
0.575049
0.508554
0.588430
0.629926
0.645528
0.736716
0.783467
0.787626
0.900897
0.741997
0.824707
0.830837
0.915999
0.861263
0.799832
0.855754
0.732866
0.712925
0.689151
0.656467
0.729080
0.735577
0.635899
0.591969
0.576349
0.494887
0.342459
0.409689
0.323044
0.343610
0.296091
0.208427
0.182516
0.048640
0.037079
-0.030348
-0.159704
-0.235208
-0.332837
-0.321454
-0.397973
-0.482174
-0.558380
-0.665969
-0.588542
-0.680827
-0.775965
-0.869053
-0.913609
-0.984663
-1.019622
-1.025701
-1.024139
-1.081702
-1.157341
-1.240528
-1.260641
-1.314032
-1.365219
-1.370959
-1.299686
-1.292712
-1.384924
-1.386609
-1.432655
-1.368330
-1.329329
-1.403773
-1.370793
-1.309248
-1.275167
-1.403679
-1.092175
-1.225663
-1.160504
-1.063196
-1.070713
-1.023062
-0.919140
-0.855118
-0.729662
-0.693477
-0.454905
-0.555420
-0.454829
-0.475922
-0.397100
-0.341629
-0.282463
-0.124293
-0.064923
0.073045
0.200150
0.170499
0.242892
0.212434
0.375853
0.409037
0.573391
0.640655
0.756641
0.733059
0.925342
0.976753
0.923122
1.121456
1.133380
1.138886
1.153990
1.164127
1.276819
1.260354
1.346237
1.343498
1.407119
1.313300
1.343231
1.416963
1.308093
1.355960
1.406074
1.303678
1.326382
1.375458
1.341237
1.321291
1.186909
1.288834
1.157353
1.120506
1.095855
0.998251
0.979466
0.938085
0.949977
0.764055
0.699506
0.618116
0.728822
0.590550
0.431225
0.391456
0.339173
0.250567
0.271839
0.164244
0.067714
0.028936
-0.028060
-0.270079
-0.190710
-0.200700
-0.287836
-0.251350
-0.419235
-0.477464
-0.552438
-0.615730
-0.634346
-0.682600
-0.709531
-0.730163
-0.770739
-0.772635
-0.779520
-0.763412
-0.774565
-0.869900
-0.871661
-0.837202
-0.766920
-0.758731
-0.794641
-0.785742
-0.719056
-0.662202
-0.728361
-0.742724
-0.641141
-0.598750
-0.528659
-0.602807
-0.695515
-0.551988
-0.454865
-0.478060
-0.323091
-0.357690
-0.254438
-0.198178
-0.171847
-0.030598
0.030515
0.098943
0.177614
0.129979
0.207314
0.210118
0.261599
0.410093
0.430873
0.406613
0.553236
0.554428
0.576367
0.613134
0.663896
0.657577
0.780766
0.795510
0.900817
0.855246
0.791987
0.812141
0.803386
0.850326
0.807541
0.897805
0.786548
0.771552
0.838362
0.757010
0.725185
0.786596
0.734106
0.690922
0.682845
0.594593
0.626052
0.591141
0.494727
0.469569
0.465410
0.433127
0.320880
0.390379
0.237243
0.202109
0.163602
0.040122
0.087597
-0.075726
-0.071018
-0.172799
-0.118804
-0.242452
-0.173445
-0.426559
-0.404741
-0.514581
-0.471472
-0.490876
-0.638620
-0.602238
-0.620938
-0.631734
-0.713050
-0.849165
-0.687166
-0.827890
-0.784098
-0.783579
-0.867182
-0.865447
-0.829110
-0.785509
-0.740993
-0.833895
-0.858487
-0.807044
-0.772757
-0.686289
-0.692803
-0.730628
-0.624122
-0.704670
-0.698902
-0.682783
-0.516485
-0.494022
-0.531990
-0.345282
-0.328544
-0.312251
-0.306174
-0.164598
-0.259595
-0.117689
-0.033458
-0.012135
0.063470
0.125332
0.119171
0.209517
0.208401
0.315792
0.425940
0.371869
0.482563
0.493934
0.582379
0.529031
0.580194
0.636734
0.676057
0.785376
0.801320
0.842183
0.805568
0.728583
0.842950
0.925689
0.797590
0.896309
0.742920
0.848590
0.828540
0.805143
0.766779
0.741194
0.606371
0.603912
0.672498
0.692260
0.523715
0.481118
0.575130
0.478571
0.362867
0.244433
0.221691
0.256830
0.212471
0.120834
0.017343
-0.051377
-0.126435
-0.174380
-0.221932
-0.231043
-0.365356
-0.410725
-0.522521
-0.537321
-0.692727
-0.670906
-0.757064
-0.865704
-0.912920
-0.884886
-0.996518
-1.054289
-1.161752
-1.165611
-1.156628
-1.184783
-1.237670
-1.239106
-1.417989
-1.293358
-1.244254
-1.345190
-1.357097
-1.391291
-1.355521
-1.332771
-1.374084
-1.348309
-1.321614
-1.247239
-1.205770
-1.254183
-1.234019
-1.092985
-1.157588
-1.081414
-1.031180
-0.926910
-0.964362
-0.895455
-0.847534
-0.727301
-0.593760
-0.522929
-0.411172
-0.448037
-0.386153
-0.252779
-0.250851
-0.188908
-0.008611
0.077063
0.106005
0.141281
0.304703
0.374278
0.529413
0.421120
0.608912
0.673718
0.723739
0.829931
0.840648
0.900503
1.007654
1.105109
1.005360
1.190598
1.299242
1.218006
1.213580
1.332136
1.318547
1.392478
1.303682
1.286455
1.209896
1.316062
1.401557
1.401073
1.342472
1.370800
1.349553
1.378445
1.297198
1.260638
1.189844
1.179953
1.163549
1.161443
1.035848
0.993333
0.965019
0.958835
0.833563
0.686150
0.733676
0.591916
0.682897
0.552445
0.446654
0.477071
0.362075
0.271636
0.243685
0.147186
0.084520
-0.044443
-0.054321
-0.144008
-0.207722
-0.286138
-0.222057
-0.335617
-0.468869
-0.399616
-0.550285
-0.555687
-0.713277
-0.703491
-0.738414
-0.675456
-0.823392
-0.744904
-0.833899
-0.768949
-0.835006
-0.835061
-0.889706
-0.853038
-0.782022
-0.787024
-0.818376
-0.823713
-0.825669
-0.858993
-0.777858
-0.770885
-0.652755
-0.665214
-0.534866
-0.574790
-0.485927
-0.482931
-0.398194
-0.319122
-0.318876
-0.273441
-0.245511
-0.080182
-0.193434
-0.070893
-0.066416
0.138385
0.067613
0.219161
0.273144
0.222344
0.370148
0.401468
0.400971
0.442186
0.546885
0.543877
0.575840
0.612150
0.651505
0.654839
0.745060
0.760318
0.846968
0.876440
0.830970
0.740692
0.795986
0.915161
0.710962
0.821662
0.808284
0.883404
0.747435
0.886695
0.839247
0.828213
0.734421
0.654218
0.703955
0.542203
0.535477
0.547943
0.493911
0.482237
0.448628
0.429052
0.377599
0.303551
0.112276
0.217190
0.176649
0.043581
0.064581
0.037520
0.025504
-0.074342
-0.167388
-0.288747
-0.247503
-0.372422
-0.409668
-0.450290
-0.527951
-0.515467
-0.629168
-0.509120
-0.640379
-0.713726
-0.761785
-0.636627
-0.818336
-0.812499
-0.810519
-0.760869
-0.900401
-0.892340
-0.805693
-0.845795
-0.851947
-0.918585
-0.857726
-0.727573
-0.757278
-0.796660
-0.723294
-0.721234
-0.620376
-0.683415
-0.710253
-0.636456
-0.548978
-0.479316
-0.497970
-0.447293
-0.373024
-0.320731
-0.244029
-0.260371
-0.177646
-0.091085
-0.071576
0.002949
0.156339
0.129622
0.150507
0.159135
0.262439
0.318813
0.446370
0.434851
0.432252
0.615521
0.586801
0.619336
0.682626
0.730761
0.698010
0.738673
0.645645
0.692060
0.693673
0.834891
0.840061
0.800047
0.767066
0.798064
0.873950
0.701958
0.806533
0.727084
0.699806
0.720399
0.672545
0.673071
0.610740
0.701678
0.451867
0.514487
0.541447
0.435801
0.395198
0.276020
0.281206
0.223988
0.168414
0.065035
-0.029874
-0.056232
-0.018197
-0.214727
-0.152620
-0.253312
-0.374060
-0.484801
-0.602481
-0.539919
-0.620467
-0.696322
-0.813644
-0.778771
-0.894163
-1.033996
-1.117208
-1.121194
-1.182323
-1.094689
-1.171081
-1.249302
-1.264839
-1.257327
-1.344100
-1.322126
-1.392269
-1.378337
-1.217554
-1.332413
-1.448100
-1.352784
-1.365067
-1.440388
-1.272681
-1.312634
-1.282466
-1.228963
-1.199117
-1.220890
-1.130649
-1.140637
-0.981870
-0.985764
-0.821527
-0.808761
-0.814404
-0.684857
-0.647590
-0.590339
-0.488030
-0.375425
-0.343371
-0.317551
-0.151910
-0.105151
-0.060857
0.105890
0.141563
0.153408
0.278110
0.418817
0.401553
0.530548
0.588618
0.687402
0.701908
0.800732
0.847718
0.955400
0.969630
1.013436
1.101441
0.991566
1.263223
1.182293
1.224897
1.282878
1.231178
1.287928
1.300198
1.382777
1.365770
1.360767
1.343883
1.281117
1.341241
1.371649
1.353798
1.310399
1.305814
1.128261
1.250581
1.153463
1.102417
1.080639
0.997113
0.990143
1.005682
0.859669
0.842117
0.776812
0.710589
0.661520
0.515460
0.445684
0.428719
0.306933
0.299838
0.274007
0.186971
0.086055
-0.041741
-0.029978
-0.031528
-0.128877
-0.122833
-0.231376
-0.327855
-0.471524
-0.433462
-0.545100
-0.539494
-0.507812
-0.574960
-0.573757
-0.653741
-0.744877
-0.716076
-0.794680
-0.737865
-0.696953
-0.854803
-0.834297
-0.799612
-0.761271
-0.797600
-0.728977
-0.777055
-0.786696
-0.735526
-0.649805
-0.720087
-0.743849
-0.714956
-0.690281
-0.578995
-0.550608
-0.531162
-0.472106
-0.411257
-0.325244
-0.332675
-0.336726
-0.260513
-0.227580
-0.137048
-0.000631
-0.032988
0.033015
0.138044
0.238551
0.211476
0.192714
0.364396
0.344230
0.433798
0.554901
0.597550
0.619149
0.575506
0.686108
0.657631
0.799427
0.764364
0.761084
0.733393
0.749031
0.772551
0.786970
0.808137
0.913442
0.769727
0.843973
0.859399
0.772235
0.882086
0.919851
0.772777
0.750766
0.698142
0.726811
0.666748
0.710272
0.617684
0.643809
0.542842
0.531302
0.442330
0.362989
0.298438
0.259806
0.268480
0.170853
0.116192
0.062190
0.068730
-0.060068
-0.059263
-0.130877
-0.249186
-0.151824
-0.382747
-0.364726
-0.431558
-0.440237
-0.440007
-0.447393
-0.572571
-0.545785
-0.662463
-0.683962
-0.664902
-0.809810
-0.699841
-0.854365
-0.779590
-0.750170
-0.854802
-0.859499
-0.851121
-0.820014
-0.856170
-0.864324
-0.814746
-0.869083
-0.818426
-0.763838
-0.720726
-0.781894
-0.716928
-0.648113
-0.773899
-0.525813
-0.474778
-0.372905
-0.476532
-0.425982
-0.344363
-0.351928
-0.272572
-0.217892
-0.056255
-0.101577
0.005014
-0.000591
0.130831
0.150718
0.123585
0.288888
0.218657
0.285090
0.307677
0.457479
0.396833
0.477672
0.516831
0.545951
0.741397
0.668365
0.611271
0.683652
0.814765
0.804870
0.724266
0.846265
0.904781
0.757933
0.849734
0.849751
0.809976
0.871782
0.740246
0.709289
0.713025
0.838262
0.673467
0.703304
0.613460
0.662361
0.550541
0.485000
0.420600
0.294238
0.422704
0.270768
0.306356
0.229916
0.091592
0.072996
-0.020008
-0.109626
-0.104085
-0.146578
-0.354149
-0.326526
-0.448510
-0.495797
-0.507550
-0.654439
-0.739509
-0.824989
-0.798294
-0.881329
-0.906701
-0.984581
-1.055500
-1.094195
-1.117067
-1.220104
-1.129894
-1.290228
-1.258483
-1.297191
-1.247483
-1.362705
-1.357126
-1.460627
-1.364133
-1.363901
-1.394364
-1.284157
-1.230756
-1.401510
-1.377627
-1.308418
-1.205679
-1.231549
-1.121642
-1.157075
-1.181903
-1.042654
-0.939192
-0.852854
-0.913835
-0.802838
-0.762268
-0.678053
-0.634497
-0.497352
-0.578694
-0.401902
-0.336698
-0.343849
-0.168697
-0.038484
0.034820
-0.002754
0.157596
0.184237
0.361679
0.347105
0.361024
0.486066
0.587189
0.725577
0.773651
0.841975
0.859598
0.930508
0.980486
1.135916
1.151437
1.125917
1.115235
1.211722
1.199722
1.234900
1.297110
1.350145
1.296303
1.384398
1.419311
1.391513
1.422138
1.452206
1.361330
1.251274
1.288976
1.375450
1.241855
1.262240
1.249822
1.197827
1.132367
1.207188
1.132032
1.041370
1.036257
0.869361
0.826776
0.740178
0.715629
0.687503
0.549118
0.447977
0.439028
0.349206
0.444974
0.271105
0.232168
0.186987
0.024629
-0.008175
-0.023837
-0.133525
-0.187247
-0.217012
-0.326299
-0.425943
-0.414191
-0.477804
-0.567308
-0.548545
-0.650024
-0.642889
-0.593471
-0.684320
-0.738705
-0.804561
-0.748930
-0.865206
-0.816754
-0.854570
-0.857316
-0.794962
-0.792622
-0.841587
-0.802289
-0.809582
-0.794521
-0.757220
-0.751896
-0.684833
-0.646196
-0.602566
-0.616045
-0.483787
-0.472948
-0.506035
-0.250971
-0.365437
-0.318288
-0.312254
-0.250639
-0.140380
-0.066812
-0.065126
0.028490
0.014919
0.067682
0.208053
0.248195
0.329368
0.351255
0.458005
0.524968
0.535439
0.607432
0.454162
0.582107
0.732293
0.590036
0.677870
0.709969
0.712266
0.749243
0.847706
0.842246
0.836892
0.829281
0.830522
0.793784
0.742853
0.879153
0.871858
0.983263
0.785547
0.817693
0.773960
0.763758
0.713372
0.648263
0.659543
0.546534
0.518842
0.493626
0.426681
0.395211
0.364991
0.318549
0.184568
0.286210
0.193105
0.069751
0.031139
0.007560
-0.048777
-0.102590
-0.137300
-0.199816
-0.238999
-0.303952
-0.337846
-0.379332
-0.495982
-0.526080
-0.531485
-0.621595
-0.588140
-0.640475
-0.620228
-0.819238
-0.733637
-0.814796
-0.719584
-0.779761
-0.691275
-0.862430
-0.838601
-0.793703
-0.833823
-0.835643
-0.876517
-0.878723
-0.736987
-0.772922
-0.746783
-0.691584
-0.747137
-0.634145
-0.689465
-0.601398
-0.602397
-0.563781
-0.481420
-0.465956
-0.451774
-0.295561
-0.204830
-0.272463
-0.185839
-0.231730
-0.142699
-0.093266
-0.044113
0.083674
0.114314
0.206639
0.265495
0.285380
0.351549
0.378743
0.455818
0.445623
0.436658
0.580863
0.646652
0.724800
0.689135
0.726833
0.761993
0.747701
0.775475
0.729853
0.773234
0.779872
0.842596
0.784861
0.814697
0.831068
0.871907
0.850605
0.810870
0.800805
0.793842
0.688439
0.601462
0.648212
0.605134
0.553428
0.498120
0.426495
0.387529
0.359202
0.263787
0.156056
0.194356
0.042654
0.043557
-0.147459
-0.066581
-0.178772
-0.132925
-0.246003
-0.385871
-0.352375
-0.457831
-0.521277
-0.636443
-0.730446
-0.722090
-0.794974
-0.824242
-0.921415
-0.997724
-1.031568
-1.128314
-1.138553
-1.156774
-1.178037
-1.304732
-1.258228
-1.303046
-1.338372
-1.279850
-1.350484
-1.356695
-1.309822
-1.273619
-1.336816
-1.373356
-1.424447
-1.294531
-1.279831
-1.381754
-1.200216
-1.215167
-1.222939
-1.189922
-1.064146
-0.993601
-0.985058
-0.989585
-0.846732
-0.842050
-0.842855
-0.779711
-0.565649
-0.617703
-0.393782
-0.425560
-0.370323
-0.261459
-0.291325
-0.036320
-0.055401
0.052920
0.139929
0.265957
0.258984
0.380753
0.447814
0.467191
0.597664
0.700988
0.826008
0.821546
0.868261
0.820066
0.998155
1.025304
1.045215
1.022849
1.159147
1.176888
1.305405
1.284566
1.354260
1.257706
1.320906
1.326412
1.352123
1.420039
1.372270
1.335276
1.400324
1.346253
1.259942
1.273116
1.233596
1.317828
1.225211
1.181140
1.163600
1.105168
1.023399
0.898380
0.921091
0.796654
0.846836
0.800300
0.679181
0.604419
0.621346
0.576257
0.522905
0.378814
0.338595
0.305769
0.287561
0.144023
-0.030284
-0.023573
-0.120476
-0.209533
-0.197256
-0.262469
-0.316560
-0.416831
-0.430763
-0.477487
-0.566564
-0.582987
-0.661736
-0.620259
-0.650777
-0.746300
-0.737678
-0.701738
-0.808245
-0.758543
-0.747594
-0.764185
-0.879786
-0.901120
-0.746667
-0.945466
-0.740513
-0.751608
-0.743058
-0.776948
-0.762146
-0.670198
-0.683733
-0.605475
-0.537110
-0.624449
-0.542086
-0.456289
-0.344804
-0.500727
-0.249788
-0.170525
-0.256566
-0.093551
-0.135040
0.030758
-0.031303
0.090679
0.063645
0.170234
0.226470
0.275593
0.367581
0.325378
0.421483
0.405479
0.516069
0.559442
0.601742
0.644034
0.759820
0.803002
0.774139
0.765586
0.676310
0.832302
0.778174
0.873340
0.804372
0.898392
0.828025
0.923994
0.784371
0.875001
0.763276
0.805580
0.792988
0.741804
0.679055
0.701719
0.668579
0.642302
0.552113
0.589466
0.531956
0.457345
0.404230
0.424034
0.290915
0.239467
0.165315
0.114327
0.158578
0.139516
0.018638
0.052010
-0.045666
-0.043806
-0.221317
-0.330283
-0.316983
-0.323841
-0.456235
-0.480304
-0.438051
-0.541758
-0.578048
-0.548830
-0.689100
-0.588383
-0.680288
-0.758284
-0.780506
-0.821108
-0.834520
-0.953906
-0.829630
-0.852268
-0.823444
-0.820912
-0.864232
-0.773272
-0.815265
-0.778053
-0.724434
-0.811274
-0.730358
-0.741585
-0.738297
-0.692644
-0.584298
-0.574286
-0.477846
-0.451841
-0.393265
-0.398657
-0.378936
-0.301822
-0.192466
-0.171384
-0.266378
-0.045682
0.109177
-0.059299
-0.037571
0.148244
0.242327
0.220526
0.394347
0.305120
0.423633
0.459265
0.485369
0.493425
0.554573
0.584278
0.647273
0.683728
0.717884
0.840054
0.701359
0.831712
0.804301
0.703887
0.810819
0.751911
0.757582
0.835458
0.782682
0.796174
0.753277
0.816619
0.822229
0.795273
0.684082
0.715949
0.627307
0.499068
0.529875
0.576355
0.503887
0.314846
0.274723
0.218877
0.222301
0.064948
0.131022
-0.041996
0.049604
-0.061472
-0.118916
-0.231383
-0.199582
-0.304344
-0.480928
-0.462660
-0.570597
-0.528734
-0.673375
-0.704280
-0.781005
-0.816564
-0.877911
-0.973371
-1.086315
-1.025091
-1.145850
-1.189864
-1.204927
-1.283858
-1.257474
-1.285733
-1.299966
-1.361285
-1.374160
-1.427379
-1.276121
-1.341178
-1.462294
-1.317279
-1.446928
-1.297263
-1.303014
-1.264132
-1.183658
-1.181975
-1.188848
-1.128953
-1.160288
-1.079061
-0.937295
-0.941604
-0.865880
-0.845406
-0.752056
-0.681229
-0.584237
-0.602883
-0.378649
-0.419538
-0.452500
-0.307367
-0.092505
-0.159341
-0.051279
0.047846
0.132616
0.196330
0.394387
0.390165
0.513126
0.547971
0.595216
0.822252
0.747009
0.797780
0.867996
0.827103
0.991738
1.013214
1.126967
1.077341
1.130375
1.141165
1.286310
1.265141
1.294334
1.282734
1.301397
1.397217
1.381009
1.361129
1.375674
1.403309
1.360806
1.410754
1.291136
1.405495
1.336053
1.257313
1.247898
1.170195
1.198949
1.094732
1.028312
1.004436
0.965379
0.877214
0.824757
0.886816
0.730742
0.592663
0.549043
0.519596
0.371485
0.440578
0.259337
0.206453
0.200353
0.099863
0.068148
0.006898
-0.124367
-0.096090
-0.194077
-0.413532
-0.291118
-0.494748
-0.365033
-0.463651
-0.497022
-0.497769
-0.661916
-0.664902
-0.770502
-0.677877
-0.741530
-0.760892
-0.850977
-0.904575
-0.797675
-0.873071
-0.836560
-0.865211
-0.848732
-0.731991
-0.748811
-0.850748
-0.798465
-0.705180
-0.746224
-0.713785
-0.737944
-0.668548
-0.559755
-0.550780
-0.480076
-0.525199
-0.440161
-0.328319
-0.310970
-0.269486
-0.217243
-0.138812
-0.093702
-0.053394
0.003380
0.039889
0.111158
0.199736
0.239667
0.296438
0.366980
0.355924
0.417060
0.500732
0.502255
0.555484
0.618853
0.574715
0.595420
0.681425
0.660744
0.902121
0.837342
0.789198
0.781892
0.814903
0.796920
0.847961
0.805321
0.865498
0.812834
0.907595
0.859818
0.824501
0.713576
0.724206
0.663599
0.592642
0.639765
0.697228
0.564174
0.529556
0.566508
0.485754
0.447953
0.439705
0.377502
0.113687
0.212560
0.264332
0.122531
-0.016503
-0.050647
-0.048920
-0.115180
-0.154774
-0.236998
-0.226589
-0.305705
-0.349780
-0.447198
-0.428908
-0.501052
-0.509641
-0.608895
-0.640431
-0.649009
-0.737242
-0.817907
-0.759198
-0.713253
-0.924502
-0.815821
-0.717754
-0.803634
-0.777908
-0.821432
-0.953927
-0.955067
-0.801241
-0.801354
-0.813492
-0.821779
-0.755139
-0.738815
-0.746378
-0.715749
-0.551961
-0.637451
-0.664431
-0.473645
-0.513646
-0.523070
-0.403090
-0.409295
-0.276763
-0.287676
-0.161333
-0.111226
-0.052651
-0.022985
0.077437
0.228335
0.232288
0.169261
0.184755
0.303662
0.275260
0.360102
0.402369
0.511700
0.508339
0.581516
0.551025
0.678179
0.744353
0.743460
0.763086
0.780576
0.831462
0.711626
0.791785
0.875491
0.844546
0.652860
0.752722
0.946097
0.779630
0.790823
0.904531
0.649388
0.647287
0.652191
0.642458
0.559350
0.566060
0.553456
0.522971
0.468994
0.495410
0.364615
0.340741
0.158085
0.198344
0.047439
-0.001299
-0.024698
-0.035909
-0.174603
-0.242799
-0.293357
-0.329285
-0.418107
-0.485025
-0.508734
-0.683712
-0.724927
-0.779753
-0.812200
-0.943816
-0.920412
-0.977608
-0.999997
-1.181952
-1.108289
-1.161485
-1.228871
-1.180703
-1.145774
-1.258636
-1.299255
-1.344717
-1.308163
-1.330594
-1.376892
-1.357406
-1.386214
-1.370332
-1.310431
-1.268521
-1.232214
-1.333252
-1.311163
-1.247611
-1.169484
-1.076439
-1.141124
-1.032256
-0.955134
-1.007978
-0.768601
-0.841318
-0.735659
-0.673824
-0.518752
-0.478024
-0.476742
-0.465353
-0.315511
-0.124359
-0.177177
-0.153621
0.013374
0.085900
0.125920
0.239320
0.291624
0.388357
0.430092
0.616451
0.540105
0.615163
0.723756
0.867329
0.834033
0.980538
0.932781
1.035590
1.163988
1.111190
1.182071
1.302116
1.216847
1.217989
1.290659
1.383881
1.424341
1.392789
1.364365
1.357774
1.317591
1.412160
1.353405
1.371298
1.254343
1.275487
1.246816
1.341288
1.204470
1.208151
1.043001
1.121601
1.030139
0.897953
0.962026
0.874917
0.898587
0.752040
0.747441
0.677565
0.529934
0.573725
0.500401
0.372511
0.248850
0.236761
0.171372
0.079406
-0.007043
-0.039697
-0.119414
-0.149430
-0.171012
-0.266434
-0.307617
-0.393528
-0.451372
-0.577176
-0.597933
-0.595605
-0.638709
-0.703354
-0.692016
-0.670464
-0.772038
-0.773660
-0.827787
-0.727140
-0.788851
-0.774509
-0.796601
-0.727463
-0.888021
-0.770835
-0.704876
-0.831706
-0.721774
-0.741644
-0.687143
-0.684926
-0.713804
-0.592866
-0.554557
-0.450743
-0.581359
-0.461334
-0.400926
-0.257603
-0.327608
-0.390169
-0.195846
-0.095236
-0.185850
-0.065577
0.029478
0.066043
0.071291
0.134752
0.186375
0.252524
0.334556
0.388344
0.429203
0.518478
0.554708
0.644828
0.639919
0.711999
0.680140
0.637751
0.772590
0.717716
0.721576
0.790350
0.752619
0.889093
0.783582
0.881249
0.794737
0.884115
0.847945
0.757912
0.847792
0.751514
0.848655
0.662361
0.691327
0.695673
0.680893
0.731405
0.587149
0.564491
0.640366
0.515154
0.422133
0.408716
0.333465
0.296370
0.232952
0.148389
0.088898
0.016728
0.007554
-0.032935
-0.055742
-0.023397
-0.161448
-0.296967
-0.378810
-0.294894
-0.381371
-0.489872
-0.456886
-0.513759
-0.573285
-0.632686
-0.709361
-0.638544
-0.841477
-0.766269
-0.828502
-0.770120
-0.838576
-0.853407
-0.859168
-0.840040
-0.888494
-0.862557
-0.883554
-0.715066
-0.748364
-0.660601
-0.748145
-0.815265
-0.728574
-0.673522
-0.615219
-0.648480
-0.593769
-0.448402
-0.490311
-0.559495
-0.454015
-0.389164
-0.409583
-0.340785
-0.270320
-0.250954
-0.167371
-0.103543
-0.011050
0.098957
0.047473
0.144586
0.155226
0.238236
0.228917
0.289986
0.444758
0.419643
0.513386
0.525900
0.610228
0.556838
0.610795
0.775211
0.671160
0.768075
0.784090
0.854583
0.778280
0.767143
0.809215
0.812923
0.827700
0.719719
0.770695
0.776608
0.815868
0.715737
0.708039
0.688274
0.704872
0.681741
0.573041
0.584635
0.578552
0.513187
0.410603
0.322295
0.370108
0.302888
0.308227
0.188470
0.139225
-0.011136
0.045357
-0.076088
-0.159657
-0.252107
-0.327319
-0.404091
-0.382160
-0.482146
-0.543075
-0.603618
-0.589772
-0.741971
-0.812516
-0.888012
-0.938262
-0.954559
-1.057191
-1.092828
-1.091861
-1.221647
-1.158739
-1.235376
-1.211094
-1.279235
-1.322262
-1.227852
-1.355310
-1.331082
-1.326959
-1.448854
-1.361425
-1.391303
-1.290377
-1.276435
-1.231262
-1.279961
-1.207872
-1.143492
-1.155243
-1.064363
-1.099935
-1.087733
-1.030003
-0.898291
-0.871722
-0.768058
-0.714124
-0.646333
-0.624726
-0.484271
-0.387822
-0.389934
-0.299570
-0.151300
-0.127318
-0.080458
-0.088328
