-0.128548
0.172975
-0.535120
-0.457389
0.147862
0.392243
0.754981
0.604297
0.002964
1.011215
-0.131728
0.878379
1.365869
0.505252
1.031645
1.233137
1.043817
1.776998
1.603008
1.162039
0.831170
0.735848
0.645163
1.478243
0.994703
1.285180
1.439962
1.455246
0.394216
1.269076
1.262304
1.019635
1.303279
1.053440
1.326043
0.126665
0.785235
1.286126
0.162564
0.283408
0.219209
-0.946400
0.253774
0.488984
0.247192
-0.677403
-0.272964
0.325670
0.575743
-0.088791
0.768095
0.206897
0.213500
0.347480
0.323158
0.102901
-0.208280
0.741649
0.247408
-0.354381
0.131929
-0.573140
0.176748
-0.361157
-0.277715
-0.901794
-0.016914
-0.097874
-0.025964
-0.081229
-0.358664
0.239432
-0.257337
-0.105814
-0.515070
-0.197467
0.182807
0.069174
0.483434
0.889336
-0.375975
0.442394
-0.280821
-0.027047
-0.664524
-0.502967
0.072067
0.444499
0.215651
0.526580
-0.265578
-0.140961
0.234080
0.322624
-0.235935
-0.056434
-0.779162
-0.500179
-0.497959
-0.511970
-0.978249
-0.472201
-0.168039
0.430162
-0.788242
-0.892190
-0.531935
-1.325579
-1.152925
-0.757029
-0.868402
-1.055108
-0.821896
-0.866766
-0.680209
-0.480346
-1.171678
-1.475113
-1.238578
-1.461544
-0.609834
-1.289395
-1.265690
-1.022579
-1.363863
-1.640108
-0.706440
-1.453403
-1.125960
-0.842470
-0.822021
-0.182872
-1.049298
-0.742342
-1.047715
-0.055383
-0.217590
-0.711007
-0.104813
-0.162770
-0.556900
0.130125
-0.140118
-0.182730
0.095524
0.139143
0.193466
-0.122753
0.043571
0.325222
0.851856
1.275479
0.095338
1.036962
0.744396
1.090759
0.302636
0.922855
1.068563
0.945031
1.265789
1.068009
1.581213
1.217682
1.371847
1.750447
1.520405
1.776816
0.511429
1.117707
1.826281
0.558319
1.187696
1.900470
0.947949
1.381161
0.913398
0.776808
0.855517
0.219706
0.895793
0.686632
0.195229
0.397884
0.928899
0.762661
0.325854
1.324117
1.084666
0.318841
0.279290
0.302035
0.458689
0.544232
0.353928
0.841603
-0.225363
0.506738
-0.323113
0.510961
0.320882
-0.481457
-0.124779
0.297293
-0.743968
-0.314237
0.925677
-0.205697
0.751402
-0.311646
0.044168
-0.158987
0.114170
-0.502053
-0.441403
1.002860
-0.153471
-0.074420
-0.278228
-0.810929
0.529529
-0.531839
-0.037594
-0.241769
-0.114569
-0.316151
0.465905
0.167684
0.061047
-0.026420
-0.392293
-0.055221
0.153963
0.468973
-0.062967
0.395279
0.245457
0.705069
0.273140
0.320265
-0.451441
0.358292
-1.099021
-0.682116
-0.346491
-0.788825
-0.617639
-0.076001
-0.137731
0.101853
-0.078512
-1.083365
-1.333441
-1.293759
-1.258532
-1.332710
-1.200638
-1.173479
-0.893303
-1.901938
-0.548472
-1.285590
-1.468394
-0.811449
-1.348567
-0.988265
-0.483412
-2.325163
-0.391590
-1.027493
-1.129070
-1.235406
-1.678478
-1.152119
-1.416047
-0.796399
-0.361312
-1.512321
-0.539162
-1.115451
-1.675085
-0.710009
-0.487328
-1.170360
-0.118667
0.277408
0.350735
-0.040661
-0.358559
0.543518
0.947978
-0.118102
0.426309
0.715198
0.098185
0.442752
0.076526
1.712176
0.562789
0.748929
0.543211
0.796285
0.978518
0.684841
0.967237
0.634486
0.802054
1.195733
1.215422
1.200782
1.298471
0.881962
1.490989
0.647775
0.755829
1.249846
1.200357
1.043033
1.219943
0.861001
0.927623
1.475314
1.586736
1.144161
0.631462
0.592331
0.792263
1.047243
0.642561
0.012604
1.441163
0.021623
0.389091
-0.239683
0.529253
0.025150
0.245894
0.581551
0.324673
0.434466
0.136491
-0.199304
-0.344172
-0.121616
0.477617
0.173709
0.402400
0.673030
-0.105201
-0.090623
-0.252841
-0.544885
-0.127972
0.039207
-0.140428
-0.149516
-0.199164
0.328198
-0.517115
-0.187479
-0.412683
-0.515092
-0.326453
0.051360
0.567753
-0.401283
-0.304122
-0.185404
0.167980
-0.160336
-0.472941
-0.212004
0.104999
-0.569365
-0.050360
-0.637843
0.753049
0.647122
1.006623
0.188776
0.495894
-0.360865
-0.036151
0.082333
-0.976876
0.232300
0.053061
-0.676037
-0.493357
-1.232477
-0.334711
-0.352397
-0.244016
-0.688830
-0.795048
-0.309488
-1.051696
-0.871528
-1.357997
-1.223828
-0.973863
-1.836725
-1.060177
-1.411345
-0.982268
-1.100613
-1.527257
-0.500450
-0.760645
-1.806009
-1.057732
-0.191216
-1.153789
-1.487558
-1.233785
-0.957280
-0.754298
-1.300079
-0.393557
-0.923322
-0.448203
-1.001959
-0.089845
-0.675558
-0.836033
-0.217447
-0.215982
-0.433049
-0.119273
0.103035
-0.414457
0.140165
-0.371246
0.238439
0.268933
0.150702
0.385467
0.602306
0.976269
0.817104
0.142741
0.031783
0.954279
1.195619
0.898172
0.933541
0.837372
0.993646
0.808645
0.740416
0.434911
0.316287
1.044265
0.743122
1.603014
1.549218
1.218841
0.706771
1.133764
1.322730
1.396816
1.446630
0.516043
1.307045
0.093955
0.585830
0.695100
0.758542
0.607363
0.561393
0.440610
1.091826
0.344355
0.142343
0.726164
0.614834
-0.018059
0.155801
0.096915
-0.240242
0.364067
0.151708
-0.316634
0.074243
0.375386
0.641875
0.273247
0.294741
0.186245
0.216910
-0.152477
-0.288010
-0.360960
-0.563716
0.112745
0.075723
0.014821
-0.042428
0.303436
-0.890168
0.071323
-0.174513
-0.384242
-0.058981
-0.347044
0.149162
-0.731117
0.602672
-0.576980
-0.106657
0.077215
0.017836
0.915694
0.085156
0.100246
-0.178835
0.741619
0.596477
0.713701
-0.029168
-0.349463
-0.203860
-0.144983
0.787267
-0.079598
-0.147969
0.215469
-1.028280
-0.283366
-0.151663
0.055219
-0.533033
-0.599790
-0.908999
-1.014689
-0.977955
-0.495865
-0.544199
-0.754441
-0.701539
-0.200941
-0.937010
-0.935912
-1.442325
-0.986261
-1.021443
-0.995314
-0.644978
-1.204014
-2.177467
-1.687620
-2.107456
-1.261230
-1.261997
-0.835307
-1.161619
-1.198753
-0.997682
-0.692286
-0.625346
-1.229244
-1.485366
-0.988422
-0.639662
-0.636268
-0.799780
-1.047547
-0.277107
-1.123550
0.291117
0.202995
-1.518491
-0.456233
-0.207863
-0.671253
-0.056437
-0.139180
0.310699
-0.154682
0.171832
0.522314
0.754403
0.396508
0.443249
0.498275
1.292454
0.737306
1.070433
-0.081373
1.255664
1.024969
1.239783
1.108528
1.096695
1.533117
1.781065
1.506281
0.959502
1.147738
0.949555
1.080650
0.978172
1.217968
0.440658
0.337092
1.174983
1.486919
1.048745
1.105689
1.257458
0.415747
0.101680
1.088773
0.662834
0.823084
0.461240
0.421120
-0.437601
0.220150
0.723999
0.985918
-0.166867
0.177888
0.579726
0.297411
0.032669
0.346377
0.131875
0.259116
0.597368
-0.128993
-0.372441
0.381263
0.158428
0.057365
0.089022
0.105991
-0.402737
-0.020359
-0.025642
-0.984446
0.098263
0.181602
-0.475694
0.255530
0.412648
-0.163820
-0.246899
-0.387539
0.700461
0.138665
-0.558667
0.397916
0.395324
-0.427412
0.200617
0.374392
0.844474
-0.005329
-0.105337
0.353084
0.218029
0.027031
-0.195496
0.195706
-0.086370
-0.318059
-0.246533
-0.219224
0.800637
-0.632900
-0.918506
0.374236
-0.220053
-0.324620
-0.213630
-0.949304
-0.495575
-0.752357
-0.055145
-0.547750
-0.887115
-1.118851
-0.810068
-1.108194
-1.261939
-0.993010
-0.993269
-1.020484
-0.427043
-1.515374
-1.502902
-1.058482
-1.857275
-1.063918
-1.433296
-1.414787
-0.989350
-1.469223
-0.989333
-1.055491
-0.950759
-0.765939
-0.999411
-1.203631
-0.852409
-1.230018
-0.606519
-0.502650
-1.002612
-0.327735
-0.905119
-0.660695
-0.094926
-0.771467
-0.099939
-0.256651
0.290360
0.306111
-0.406240
-0.047555
0.211378
0.843403
0.031622
0.485365
0.210966
0.546808
0.667092
0.079703
-0.087375
0.449398
1.229035
1.112163
0.580610
1.040333
1.547678
0.672582
1.631820
0.131810
1.474325
1.017647
1.845442
0.671249
0.662579
1.230781
1.147792
1.024190
1.132262
0.796779
0.215238
0.360909
0.976951
0.963077
0.705420
0.870887
0.898011
0.697262
0.371845
1.467449
0.946862
0.877479
1.220024
0.114402
0.379612
0.266647
-0.207768
0.316774
0.192844
0.173294
0.490631
0.581613
-0.599904
0.583420
0.181165
0.521312
-0.256352
0.092826
0.036539
0.073410
-0.504574
0.519648
-0.277850
0.141444
-0.572758
-0.449828
0.429711
-0.593868
-0.076888
-0.676668
0.271870
-0.948822
-0.190556
-0.615544
0.665785
-0.024560
-0.059944
-0.352768
-0.400930
0.462073
-0.585610
-0.134112
0.201420
-0.001713
0.050214
0.014491
-0.609148
-0.093168
0.321369
0.264020
0.046444
0.291289
0.361444
-0.490610
-0.596315
-0.678391
-0.555424
0.264715
0.352616
-0.594727
-0.685399
-0.578922
-0.489590
-0.598961
-0.441268
-0.593480
-0.060776
-0.426549
-0.757400
-0.960838
-0.024508
-1.446790
-0.593234
-1.380768
-1.081692
-1.418454
-1.442257
-0.832127
-0.792718
-1.549453
-0.821845
-1.068271
-1.429748
-0.814106
-0.992857
-0.789776
-0.407423
-1.164296
-0.757216
-1.394525
-1.039788
-1.026367
-0.662936
-1.019684
-0.657840
-0.271407
-0.737383
-1.045320
-0.645678
0.129807
-0.037993
-0.736364
0.607914
0.258623
0.294293
-0.046462
0.362464
0.524404
-0.166825
-0.325270
0.184883
0.762589
0.802040
0.467964
0.191508
0.712653
1.373222
0.730780
0.761958
1.269191
1.159878
0.366363
0.403575
1.299197
0.602290
1.412165
1.155181
1.603543
1.853560
1.593280
1.403064
0.660667
0.945683
1.369999
1.170103
1.164087
1.036133
0.929991
1.413531
1.078516
1.324886
0.085053
1.204687
1.016314
0.342653
0.557413
0.313861
0.149227
0.802887
0.360949
0.468723
0.082613
-0.068974
0.727763
0.225207
0.038375
0.401714
0.661054
-0.504316
-0.101111
-0.708587
0.192953
-0.105974
0.463560
0.530978
-0.511088
0.259438
-0.123679
0.560735
-0.127359
0.318342
0.375687
0.021473
-0.040967
0.171412
-0.259138
0.400980
0.119215
0.266664
0.582489
0.037127
-0.071301
-0.414978
0.032105
0.245580
0.637513
0.780346
-0.735344
0.748046
-0.172785
0.640670
0.368488
-0.089623
0.980460
-0.208833
-0.357198
0.178183
0.663634
-0.217184
-0.510078
-0.102060
-0.744520
-0.276593
-0.482237
-0.808270
-0.532420
-0.095765
-0.484431
-0.791779
-0.289001
-1.048335
-0.930768
-0.785906
-0.943929
-0.285247
-0.420720
-1.022986
-0.848267
-1.085777
-1.257055
-0.798835
-1.240026
-0.813587
-1.505676
-1.175164
-1.520207
-1.305147
-0.403814
-0.655438
-0.172975
-0.591439
-0.797225
-1.668007
-0.814505
-0.977206
-0.442450
-0.858302
-0.557278
-1.357300
-1.093696
-0.721755
-0.833974
-0.302078
-0.344664
-0.649626
-0.717292
0.630864
-0.285519
-0.380780
0.350614
-0.070249
0.216895
-0.160680
0.840175
1.204308
0.333848
0.125637
0.386776
0.655891
1.055272
1.066227
0.403052
1.214925
0.039777
1.280950
0.316591
1.166602
1.168310
1.281679
0.292689
1.013500
0.377668
1.562066
1.511571
1.364310
0.843317
0.935409
1.297924
1.512728
1.366549
0.128672
0.466475
0.946431
0.205727
1.410135
0.807809
0.188830
0.242587
0.740866
1.564047
0.398440
0.372837
0.865503
0.544470
0.894005
0.786859
-0.082303
-0.544677
0.275726
0.439715
0.889801
0.852019
0.091292
0.331384
-0.832897
0.490179
-1.035050
0.368072
-0.098762
0.288169
0.433881
-0.436063
-0.553132
0.063696
-0.421772
0.019302
-0.393984
0.152644
-0.183864
0.131628
-0.211644
-0.047846
0.066437
-0.198574
-0.097142
0.379591
0.018609
0.026796
0.823360
0.317935
0.035733
-0.706700
0.641485
0.641784
0.108887
0.521127
-0.271893
0.020678
0.201462
0.198498
0.178431
0.304712
0.088180
-0.497527
-0.305922
-0.580547
-0.574636
-0.822657
0.030875
-1.021703
-0.179955
-0.174822
-0.878490
-0.854493
-0.836502
-0.890215
-0.707216
-0.721825
-0.842061
-0.531261
-1.162556
-1.048116
-1.245567
-0.656677
-1.006738
-1.429304
-0.957090
-2.162095
-1.304352
-1.401446
-1.074947
-1.502240
-1.093631
-1.134087
-1.069140
-1.575961
-1.482226
-1.063650
-1.184817
-1.066173
-1.096365
-1.231965
-1.022501
-0.977213
-0.332219
-0.283185
-0.195776
-0.488321
-0.470915
0.078650
-0.257573
0.597391
0.224613
0.572219
-0.158785
0.551889
-0.096547
0.884822
0.732976
0.457487
0.419198
0.321344
1.115156
0.899134
0.416792
1.301334
1.139919
1.105804
0.487517
0.950722
0.703253
1.217846
1.448164
1.058192
0.502849
0.639571
0.620072
1.134898
1.193766
0.322690
1.151508
0.780613
0.708757
1.403844
0.601287
1.342578
0.433817
0.542715
1.431409
1.018452
0.441346
-0.591385
0.200425
0.363355
1.073472
0.636396
0.076502
0.000600
0.679511
0.236316
0.617843
0.326939
0.342246
0.414495
0.040075
0.263517
-0.701455
0.432613
-0.462855
-0.164869
0.031347
0.013060
0.198869
0.068889
-0.436799
0.139013
0.033637
-0.372276
-0.281737
0.691193
0.527562
-0.038317
-0.396407
-0.391160
0.722115
-0.043758
0.320747
-0.592953
0.539017
-0.074075
0.047544
-0.470840
-0.424933
0.237344
0.734568
0.133764
0.281842
0.181300
-0.338405
-0.324517
0.375220
-0.165421
-0.231717
0.281321
-0.686088
-0.084254
-0.157867
-0.326714
-0.293414
-0.227224
-0.079379
-0.215526
-0.698800
-0.380227
-1.148505
-0.740224
-0.329055
-0.805913
-0.592066
-0.425368
-1.472683
-0.958390
-0.285609
-0.862568
-1.093970
-1.177808
-1.617633
-0.907307
-1.130581
-0.949122
-0.423157
-1.343292
-0.891726
-2.016158
-0.919504
-1.415987
-1.164591
-1.776502
-0.312050
-1.186191
-0.946862
-0.676263
-1.096501
-0.668074
-1.032370
-0.845452
-1.203853
-0.917350
-0.847690
0.031971
-0.002746
-0.443937
-0.274550
-0.636152
0.735793
0.578158
-0.118969
0.437773
0.048714
0.099143
0.026044
0.227695
0.377953
1.015255
0.607087
0.662479
1.449452
1.030670
0.859683
1.491679
1.744949
0.469740
0.808516
1.293462
1.244742
0.534026
0.557096
1.298207
1.047341
1.116774
1.466774
1.049263
0.758540
1.397563
1.138434
1.507927
1.351753
0.737467
1.133646
0.732359
1.173707
1.338975
0.641324
0.434058
0.297230
-0.125427
0.133216
0.659579
0.201428
0.620809
0.721025
0.848638
0.818524
0.211606
-0.139285
0.730003
0.588307
0.390785
-0.023882
0.052402
0.445789
-0.187563
0.126891
-0.119880
-0.091027
-0.168762
-0.402186
0.012821
-0.455164
1.210591
0.218479
-0.418203
-0.219380
0.243849
0.281872
0.169694
-0.343925
-0.224145
-0.116290
0.145539
-0.691679
-0.277312
0.139736
0.022076
-0.952129
-0.423102
-0.563273
0.199753
-0.730147
-0.097119
0.680548
-0.225181
0.154632
-0.379477
-0.397895
-0.411097
-0.173561
-0.753234
-0.236091
0.359379
-0.411523
-0.466514
-0.549530
-1.251724
-0.157591
-1.202575
-0.166790
-0.579023
-0.879010
-0.733084
-0.283936
-0.855011
-1.675503
-0.833959
-1.362514
-0.833225
-0.783746
-1.310014
-0.589307
-1.494078
-1.519835
-1.223501
-0.886629
-1.598737
-0.873423
-1.418979
-1.088759
-1.561119
-0.907075
-1.418767
-0.703581
-0.552880
-1.341753
-1.159636
-0.614885
-0.956902
-1.049214
-0.678457
-0.451216
-0.307504
-0.587102
-1.363212
-1.213076
-0.471945
-0.526249
-0.876564
-0.421239
-0.341651
-0.511847
-1.090378
0.305497
-0.335262
-0.030479
0.700961
0.629008
0.343760
0.406384
0.821568
0.575032
1.084876
1.012526
0.688760
0.754334
0.571034
0.666651
1.083707
1.038836
0.704552
1.286023
1.046587
1.535562
0.794008
0.846179
0.898996
0.539212
1.010079
0.481032
1.098204
0.785840
0.992566
1.228586
1.459523
0.689672
1.095519
0.725106
1.345778
0.388571
0.930203
0.684392
0.425897
0.555624
0.434919
0.380783
0.541072
0.858834
0.352031
0.106466
0.065220
0.385199
0.168067
0.262405
-0.262389
0.113158
0.441292
0.171467
0.587071
0.396093
0.656834
-0.710047
-0.163690
0.056489
-0.497251
-0.011807
0.436793
-0.376412
0.082692
-0.243296
-0.974069
-0.909998
0.477091
-0.332592
-0.062340
0.207840
-0.346182
-0.087028
-0.349501
0.230018
-0.282014
0.313372
0.285728
-0.558544
0.489183
0.002168
0.350186
0.457286
0.444729
0.145067
-0.355939
-0.700190
0.311799
0.452181
-0.375754
-0.533753
0.274437
-0.519461
-0.279534
0.017805
-0.406812
-0.449417
-0.054434
-0.452444
-0.332012
-0.070873
0.031927
-0.586160
-0.758003
-1.141472
-1.056230
-0.417278
-0.254479
-0.675095
-0.984810
-1.198032
-0.526664
-1.384921
-2.032064
-0.725756
-1.250882
-0.800097
-1.161144
-1.507942
-0.399981
-1.043676
-0.588098
-1.494975
-0.976918
-0.576164
-1.466260
-0.882688
-0.914580
-0.620313
-1.167860
-1.142704
-0.293777
-1.404050
-1.121856
-0.808204
-1.093707
-0.428516
0.205756
0.318281
-0.271958
-0.363916
0.502420
-1.033746
0.361585
0.733381
-0.336467
-0.010619
0.383845
1.048486
0.385886
1.087148
0.599686
0.052268
1.146767
0.508994
0.566596
1.381664
1.218394
0.729679
1.458801
0.722781
0.725313
0.857724
1.337484
0.760351
1.738645
1.178780
1.501514
0.708128
0.920401
1.550220
1.114719
1.034187
0.414163
1.279507
0.528116
0.508553
0.858079
1.221265
1.099149
0.161113
0.955009
-0.112103
1.139827
0.217771
0.764566
0.913052
-0.049107
0.501562
0.037655
0.073072
0.458855
0.060261
0.011991
-0.479173
0.020183
1.180692
-0.633413
-0.126296
0.614280
-0.586710
0.135707
-0.235192
0.381649
-0.612538
0.440068
0.250704
-0.101891
0.591373
0.205783
0.072506
0.852208
-0.049843
-0.764394
-0.024832
0.625564
0.302014
-0.072253
0.208460
0.140784
-0.312453
0.261247
0.153071
-0.034573
0.115317
-0.008006
0.699297
-0.286403
0.147297
-0.096440
0.014578
-0.464415
-0.016348
-0.231003
-0.428401
0.360767
0.026927
-0.820482
-0.328534
-0.307393
-0.643453
-0.785308
-0.095132
-0.318518
-1.061323
-1.044345
-0.584113
-0.810861
-0.258526
-0.359318
-0.637010
-0.819577
-1.081810
-0.718893
-0.908304
-0.942700
-1.053257
-0.935402
-1.490062
-0.361266
-1.077606
-1.461745
-0.852923
-1.605442
-1.305694
-1.428630
-1.188576
-0.997120
-0.559016
-1.396488
-1.025213
-0.321040
-0.382278
-1.199885
-1.948242
-1.211936
-0.887061
-0.878536
-0.719318
-0.553673
-0.694669
-0.656429
-0.486383
-0.518932
-0.422895
0.423281
-0.576506
0.491910
-0.092494
0.408196
-0.276285
-0.138220
0.664239
0.666968
0.686491
0.813129
0.436578
1.060708
-0.078020
0.364734
0.725766
0.435303
1.011186
0.572772
1.146094
0.961176
0.697988
1.038311
0.850737
1.189574
0.538942
1.073638
1.795483
1.229999
1.074607
1.188228
1.340549
2.206108
0.578854
1.388190
0.563743
0.663555
1.094895
0.539075
1.494338
1.064452
0.057014
0.922818
-0.486889
0.460318
0.685607
0.730046
-0.187842
0.570805
-1.042459
-0.241992
-0.547943
0.869735
0.486720
-0.633589
1.011902
0.568337
0.181354
-0.125043
0.014394
0.010145
0.342466
-0.523749
-0.057626
0.318599
-0.241555
-1.090296
0.575090
-0.257300
-0.125582
-0.629140
0.589873
-0.079063
-0.159834
0.049051
0.462497
-0.105455
-0.047420
0.225517
-0.627136
0.409136
-0.180981
0.245386
-0.037332
-0.741467
-0.183351
0.625242
0.280573
0.452249
-0.066244
0.219721
-0.458671
-0.266414
0.111372
-0.070623
0.098008
0.040522
-0.619509
0.325347
-0.303462
0.315727
-0.566417
-0.528597
-1.229527
-0.393278
-0.993024
-0.823639
-0.277421
-0.344062
-0.639576
-1.423718
-1.157104
-0.900691
-0.953368
-1.306402
-1.256239
-0.894807
-0.540631
-0.900165
-0.642303
-1.450245
-1.344773
-1.444151
-1.685677
-0.876526
-0.941557
-0.860193
-1.642012
-1.297822
-0.067142
-1.295941
-1.512050
-0.952568
-0.931588
-0.919648
-1.227240
-0.987937
-0.745514
-0.152171
-1.015377
0.011819
-0.880026
-0.454620
0.252084
-0.663087
0.092362
0.888110
0.778728
0.259687
0.439268
-0.171070
0.814026
0.848587
0.527506
1.562704
0.163772
0.628371
0.797122
0.129044
1.048798
0.781331
0.608757
0.620128
1.307976
0.827603
1.592999
1.175395
1.494708
1.273264
1.407028
1.506716
0.060667
1.422279
1.189539
0.852255
0.975641
1.253710
1.387711
0.683438
0.729755
1.265350
0.956399
1.317968
1.135409
0.202249
0.466540
0.018710
0.213309
0.790721
0.241829
0.312780
0.800469
1.020131
0.285245
-0.185217
0.498577
0.583869
-0.687580
0.467242
0.012544
0.676181
-0.122154
-0.179406
-0.371052
-0.287997
0.121737
0.313928
-0.059552
-0.544600
-0.862270
-0.095268
-0.462167
-0.304451
-0.617569
0.194420
0.247266
0.251306
-0.095039
0.198679
0.441882
-0.008151
-0.426618
-0.033369
-0.497856
-0.022689
0.683287
0.199446
0.319865
-0.006345
-0.455253
-0.492067
0.138324
-0.256690
-0.312408
-0.155370
-0.490165
0.147175
-0.675000
-0.149227
0.410107
0.589256
-0.285239
-0.873538
-0.774283
-0.263569
0.030975
-0.238749
-0.774544
0.195453
0.258678
-1.024268
-1.111748
-0.832512
-0.554526
-0.827046
-1.087603
-0.917372
-1.013731
-1.196461
-1.140537
-0.878857
-1.300606
-1.039470
-1.723138
-1.455405
-1.271683
-0.831652
-1.419524
-1.175184
-1.345324
-1.518864
-0.858693
-0.710129
-1.342917
-0.600261
-0.281416
-0.506050
-1.044882
-0.758192
-0.451146
-0.607721
-0.688877
-0.675488
-0.656275
-0.980535
-0.454538
-0.173986
-0.508719
-0.042712
0.617756
0.264962
-0.275336
0.436734
0.729864
-0.162337
0.344131
0.386854
0.564011
1.176865
0.624789
0.990068
1.307632
0.866240
1.786793
1.427566
1.802140
1.431440
0.461429
0.706719
0.817441
0.573555
1.052438
0.949569
1.741713
0.764363
0.570795
0.920565
1.570524
1.062491
0.997134
1.636698
1.047928
0.772162
0.776125
1.112867
1.244887
1.023725
0.814997
0.630559
0.415859
0.222261
0.239600
0.306280
0.411882
0.405559
-0.434362
0.527142
0.256748
0.156494
0.063527
-0.157122
-0.062511
-0.010648
-0.427936
0.075228
-0.499712
0.087460
0.184090
-0.196893
1.040691
-0.164338
0.083044
-0.210850
0.324521
-0.082933
0.071735
0.664968
0.434188
-0.107688
-0.270202
-0.027367
-0.151223
0.484795
0.792390
0.044873
-0.006977
0.437030
-1.132119
0.180678
0.092408
-0.100141
0.363772
0.464147
-0.131899
0.149886
0.562939
0.217339
0.536921
0.011335
-0.598372
-0.204723
-0.673779
-0.947904
0.367454
-0.169934
-0.287337
-0.373864
-0.206524
-0.316615
-0.319752
-0.551642
-0.455159
0.107345
-0.277524
-0.650184
-0.505101
-0.355750
-1.086386
-1.408831
-0.334988
-0.973102
-1.091392
-0.293603
-0.605263
-1.461052
-0.830633
-0.638505
-1.011148
-1.416404
-1.372761
-1.558814
-1.056231
-1.829697
-0.571067
-1.284651
-0.600766
-1.241606
-2.177703
-0.480211
-0.684440
-0.017462
-0.204088
-0.418963
-0.436575
-0.822979
-0.287225
-0.312317
-0.780544
0.120217
-0.747773
0.163344
0.348185
-0.781969
0.023207
0.176307
0.427779
0.338616
0.908170
-0.068820
0.775234
0.820744
0.176189
1.440134
-0.286564
0.691774
1.192642
0.392857
1.057725
0.387735
0.774207
1.301638
0.515257
1.521118
1.353777
1.038939
0.948616
1.380342
0.486527
0.584843
0.879935
1.098293
0.850532
1.092630
0.962728
1.286110
0.724602
0.452844
0.822425
0.976134
1.423745
0.177437
0.701603
1.886980
0.345421
-0.054394
0.371108
0.426463
-0.590078
0.748311
0.304698
0.967937
0.818875
1.353461
-0.274710
0.494769
-0.027293
0.011421
0.380764
0.924215
0.128738
0.572197
0.220021
-0.050188
-0.492294
-0.352364
-0.015329
0.223601
-0.666267
-0.493676
0.151269
0.194211
-0.421927
-0.238944
0.173644
0.071315
0.452266
0.305004
-0.570105
0.317413
-0.117266
0.598177
-0.409224
-0.075446
0.192917
0.127452
0.097526
0.305132
0.057923
-0.153174
0.595781
0.318470
-0.673772
-0.248041
-0.010573
0.421146
-0.167464
-0.153388
0.043612
-0.475304
-0.284191
-0.546006
0.221003
-0.387675
-0.261905
-0.873214
-0.335371
0.014610
-0.148775
0.089060
-1.023443
-0.820458
-0.240088
-0.813282
-0.544246
-0.800561
-1.426674
-0.935732
-1.446395
-1.374876
-0.604889
-0.602996
-1.747243
-1.878664
-0.629968
-1.538176
-1.270387
-1.225260
-1.445319
-1.284458
-1.113256
-0.885611
-1.907156
-1.855162
-0.675059
-1.411173
-0.446814
-0.520274
-0.539432
-0.777685
-1.270475
-0.488843
-0.593251
0.092180
-0.297295
-0.311927
-0.158474
-0.167476
-0.421393
0.013434
-0.278161
0.597342
-0.041275
0.440562
0.933215
0.536309
0.439250
0.923167
0.088715
0.986350
1.269091
0.513492
1.074012
0.401316
1.089316
1.049294
0.164750
1.190733
0.510210
0.723228
1.366190
1.617070
0.733645
1.022780
0.933951
0.898123
1.633967
0.843268
0.935928
0.768124
0.210317
1.203786
1.528843
0.904972
1.159371
0.312802
0.396893
0.399845
0.051178
0.603562
0.132719
0.157581
0.373653
0.736740
-0.196498
0.494490
-0.247026
-0.234669
0.648689
-0.430304
0.249876
0.130825
0.237992
0.434212
0.307604
0.770157
0.234472
-0.148002
0.144190
-0.626357
-0.167398
0.051269
-0.232452
0.280973
-0.093669
-0.162248
-0.568384
0.151591
0.071737
-0.011759
0.194437
0.352347
-0.051608
-0.203116
-0.006668
0.337877
0.435195
-0.423277
-0.237266
0.230583
-0.407965
0.074909
-0.500259
-0.087131
-0.314372
-0.022280
-0.121901
-0.107410
-0.431516
-0.009644
0.479367
-0.053859
0.002590
-0.280841
-0.348458
0.205317
0.164999
0.403389
-0.754384
-0.182984
-0.216583
-1.244651
0.271198
-0.819866
-0.116666
-0.555283
-1.177691
-0.895202
-1.348663
-1.341430
-0.192726
-0.399015
-0.951745
-1.284251
-0.491689
-1.288215
-0.928882
-1.029563
-1.245585
-1.252130
-1.289537
-0.425997
-0.681497
-0.794478
-1.305971
-1.153679
-0.136075
-1.119601
-0.569871
-1.292232
-0.594572
-1.308653
-0.380011
-1.188140
0.213571
0.214924
-0.046208
-0.287490
-0.616689
-0.567631
0.072578
-0.218907
-1.021589
-0.205588
0.313812
0.222876
0.764847
0.303703
0.978003
0.139223
0.517283
1.186874
0.493919
0.835892
1.530652
1.100634
0.824188
1.107092
1.012418
1.947833
1.003686
1.140174
1.203907
1.023633
0.977135
1.020230
1.202883
0.694868
0.987096
1.063807
1.101355
1.587004
1.184217
1.014114
1.045625
0.786122
0.876261
1.062279
0.565137
0.432952
0.896990
0.578073
0.766740
-0.288588
0.140865
0.964492
0.629219
0.698606
0.516406
0.734011
0.182349
0.508263
0.236305
0.428205
-0.080301
0.336637
0.757303
-0.537185
0.231085
0.105165
-0.005941
-0.083817
0.101035
-0.610651
-0.137828
-0.059966
-0.482362
-0.131352
0.082523
0.348166
0.206355
-0.452400
0.722879
0.125841
-0.528012
0.362282
-0.310542
-0.045783
-0.032405
0.006755
-0.378773
0.467948
-0.553271
-0.372611
-0.129484
-0.145481
-0.547898
-0.518211
-0.231221
0.634098
-0.371292
-0.579180
0.123106
-0.063217
0.177960
-0.914325
0.051788
-0.460948
-0.367524
0.192615
0.394486
0.050373
-0.548397
0.037647
-0.975446
-0.355649
-1.012486
-0.145530
-0.732500
-0.801139
-0.700618
-0.700036
-0.717744
-1.001018
-1.270525
-1.244253
-1.024746
-1.136416
-0.898479
-0.908050
-1.292539
-0.692263
-0.245708
-0.660329
-1.449437
-0.095162
-0.868096
-1.153402
-0.499771
-1.642930
-1.270330
-0.935995
-0.767046
-0.773391
-0.642593
-1.119500
-0.355432
-0.408520
-0.273411
-1.279667
0.179090
0.532587
-0.451324
-0.866921
-0.335243
-0.177117
-0.296527
-0.525289
-0.210846
0.627435
0.222404
0.224731
0.349430
0.851286
0.918744
1.539424
-0.064950
0.853811
0.248929
0.739150
1.735046
0.758485
1.283604
1.304435
1.481527
1.422153
1.269492
1.103639
1.809455
1.210021
0.685944
1.677216
0.907813
0.213286
1.329452
1.022789
0.737365
1.584255
1.647383
0.604970
1.766308
1.178158
0.640154
1.171964
0.562304
0.655918
0.407093
0.898686
0.494791
-0.038023
0.635053
0.905456
0.448935
0.611961
0.077368
-0.245753
-0.674868
0.494864
-0.274987
-0.452464
0.273312
-0.407469
-0.057157
-0.806835
-0.689363
0.034249
-0.269390
-0.569489
0.340645
0.033857
-0.133128
0.209342
-0.591107
-0.566274
0.063885
0.289008
-0.018548
-0.575957
0.101436
-0.288570
-0.299684
-0.069608
-0.787509
-0.252162
-0.249478
0.503620
1.053831
0.119941
0.082555
-0.314955
0.005318
0.325269
0.002099
-0.141979
0.207504
-0.306030
-0.281521
-0.449371
-0.381253
0.319755
0.383170
-0.438009
-0.442735
-0.844798
-0.727518
-1.094229
-0.155134
-0.373417
-0.480383
-0.214373
-1.227170
-0.598133
-1.312259
-0.773238
-1.561380
-1.266695
-0.729858
-0.306558
-1.565483
-1.096805
-0.934304
-0.366737
-1.255229
-0.967127
-0.997796
-1.520661
-1.128495
-1.184056
-0.948377
-1.843221
-1.241070
-1.717801
-1.493249
-0.997346
0.158079
-1.183157
-1.814300
-0.725391
-0.613014
-0.790265
-0.794482
-0.406064
-1.207889
-0.163683
-1.408831
0.029507
0.249343
-0.501981
0.238605
-0.344478
0.296058
0.088389
-0.111272
0.839186
-0.113229
0.502540
0.135405
0.544752
-0.010680
0.697138
0.632653
0.525615
0.623069
0.982279
0.633892
0.733511
0.411648
0.250421
1.670575
0.759678
1.602814
1.026485
0.561258
1.308818
0.449981
0.755520
1.738763
1.191611
1.292534
1.274899
0.893139
1.056162
0.802656
0.269503
1.618013
0.973351
1.218333
0.512711
0.497069
0.447701
1.011540
0.220081
-0.237446
0.885489
0.500907
-0.011134
0.361615
-0.367954
-0.148488
0.137186
0.743608
0.366391
0.245416
0.009041
0.020605
-0.128854
-0.007805
0.827736
-0.101377
-0.106805
0.134822
0.108836
0.007506
-0.040718
-0.354239
0.090054
0.086685
0.326941
0.176095
-0.165719
-0.047536
1.001518
0.040043
-0.692684
-0.421770
-0.057252
0.013800
0.754502
-0.125212
-0.008484
0.210351
-0.702914
0.278391
0.475726
-0.805685
-0.561791
-0.387722
0.692200
-0.027111
0.597861
-0.521967
0.161132
0.178405
0.627878
-0.658659
-0.663122
-0.666262
-0.716629
-0.558799
-0.051085
-0.468121
-0.878946
-0.671002
-0.521658
-0.983303
-0.935416
-0.615677
-1.209487
-0.710260
-0.652381
-1.386027
-0.771788
-0.975278
-0.732810
-1.747405
-1.497162
-1.255915
-1.016667
-1.352401
-1.716480
-0.175256
-0.201820
-0.884942
-0.527484
-0.883999
-0.941631
-1.513123
-1.462414
-0.879877
-0.974143
-1.191586
-0.729618
-1.093511
-1.046127
-0.795209
-1.274531
-0.970748
-0.032102
-0.035651
-0.029179
-0.568069
-0.784939
0.989571
-0.432341
0.052859
0.724234
-0.235278
0.533469
-0.179620
0.403326
0.304899
0.514238
0.722661
0.527704
0.646156
1.192709
0.985637
0.911052
1.034281
1.120556
0.865592
1.175291
1.068517
1.009946
0.981933
1.648754
0.968574
0.579741
0.372055
0.742226
1.258421
1.530131
1.023592
1.256814
1.144259
0.842456
0.304912
0.608110
0.187084
0.535956
1.000872
0.539941
1.036166
-0.200603
0.431841
0.845665
0.452917
-0.272057
0.192902
0.080177
0.172466
0.097193
0.193222
-0.021066
-0.136988
0.119945
0.877134
-0.438777
0.411586
-0.062367
0.058696
-0.208450
-0.481754
0.246640
-0.382037
0.148534
-0.206764
-0.010664
-0.116149
-0.402782
-1.056015
-0.423196
0.001198
-0.362201
-0.034581
-0.564870
0.086593
-0.361493
-0.217142
-0.068793
-0.196222
-0.172955
-0.595187
-0.402945
0.027567
-0.078732
-0.251099
0.394897
-0.440964
-0.604346
0.271587
0.437605
0.127765
-0.349551
-0.103679
0.677235
0.175215
0.024776
0.751526
0.058153
-0.859626
-0.357966
-0.125445
-0.443312
-0.513684
-0.612570
-0.681417
-0.214242
-0.666397
-1.028824
-0.420697
-0.763434
-1.150140
-0.769617
-0.772514
-0.794868
-0.705598
-1.199306
-0.600437
-1.016814
-1.415236
-0.858690
-1.218330
-1.608344
-0.257943
-0.779600
-0.752361
-1.090594
-0.714697
-0.834566
-0.744309
-1.460678
-0.436182
-1.021221
-1.429779
-0.451692
-1.009988
-1.009385
-1.298667
-1.520550
-0.430669
0.389847
-0.528483
-0.605208
-0.468014
-0.563137
0.628753
-0.639341
-0.156698
-0.401605
-0.105739
0.516652
-0.070055
0.562999
0.436221
0.641039
0.489253
0.381333
0.687311
1.304488
0.595559
1.323007
1.032376
0.738413
0.875904
0.701866
-0.139189
0.281691
1.501922
1.353436
0.963745
1.115474
1.599447
1.607224
1.413792
1.609322
1.231014
0.678197
0.876352
0.521691
1.076201
1.470430
-0.260597
0.711990
0.540736
1.147643
1.208508
0.659829
0.103334
0.329111
0.182975
0.635508
0.521867
0.651451
0.945944
0.629229
0.153155
0.182168
-0.009827
-0.029888
-0.023054
0.341536
-0.261831
-0.145283
-0.212940
-0.037488
0.298450
0.215789
-0.624645
-0.173119
0.678082
-0.243018
-0.255749
0.323150
0.344254
0.181517
0.519665
-0.515851
-0.251731
0.470817
-0.639914
-0.789244
-0.641915
0.613264
-0.324361
0.538029
0.036198
0.680264
-0.008990
-0.244600
-0.491193
0.476738
0.211169
-0.519530
0.218656
-0.346014
0.132023
-0.091203
-0.100239
0.575322
-0.061620
-0.175180
0.112213
-0.407946
-0.169771
-0.041191
-0.275024
-1.375153
-1.077897
-0.521857
-0.025552
-0.042259
-0.475954
-0.793632
-0.716123
-0.498239
-1.152234
-1.222841
-1.158764
-1.451303
-1.349488
-1.469732
-1.345721
-0.872886
-0.689174
-1.255539
-1.521693
-1.062775
-0.873281
-1.005019
-0.959088
-1.381737
-1.387389
-0.828328
-0.768191
-0.905472
-1.460328
-0.819461
-0.764189
-0.577975
-0.786296
-0.857107
-0.206388
-0.136771
-0.693047
0.292002
-0.862956
-0.914340
-0.113245
-0.085205
-0.080353
-0.228644
-0.025780
-0.924374
0.392092
0.003234
-0.250500
0.240215
0.252119
0.920499
0.272308
0.871030
0.383553
0.920089
0.651427
0.492683
0.325651
1.468281
0.562913
1.552007
1.540656
1.483928
0.952040
1.764019
0.840219
0.934163
1.766175
0.971798
1.413262
1.197678
1.077874
0.883510
1.249903
0.660854
0.372306
1.111556
0.875860
0.186744
1.208595
0.543152
1.057047
0.518397
0.851545
0.325184
0.968255
0.532167
0.518752
0.578717
-0.347967
0.078252
0.499630
0.872149
-0.034282
-0.585715
-0.176491
0.164127
-0.253468
-0.410963
-0.205205
-0.749485
-0.239400
-0.251931
-0.644619
-0.482662
0.319943
-0.084014
0.071344
-0.961600
0.403871
0.202991
-0.345596
-0.150737
1.534168
-0.454294
-0.190033
-0.000849
-0.370365
0.100064
-0.033909
0.381202
1.119128
0.251024
-0.522901
0.377318
-0.026388
-0.115038
-0.704868
0.452963
-0.079535
-0.072129
-0.426842
-0.258822
0.089795
-0.521232
0.387863
-0.096907
-0.381466
0.009248
-0.237773
-0.511773
-0.671340
-0.088946
0.026399
-0.221787
-0.872902
0.097073
-0.347901
-0.341999
-1.149275
-0.686096
-0.493313
-0.305578
-0.795967
-0.392185
-1.555481
-1.031706
-1.468826
-1.017153
-1.058174
-1.349657
-0.783475
-1.089469
-1.105069
-1.014309
-1.129771
-0.124028
-0.760150
-0.370477
-1.610080
-0.831525
-0.970540
0.083804
-0.987924
-1.152344
-0.927307
-0.299480
-1.107732
-1.338290
-0.197107
-0.091803
-0.829339
-0.406313
-0.185683
-0.435194
-0.650086
-0.543744
-0.042154
0.274476
-0.198603
0.186807
0.239805
0.129766
0.492981
0.113468
-0.005455
0.943479
0.123381
1.310425
1.286355
1.244596
1.525508
1.367545
1.058396
1.347862
1.359363
1.687660
1.012714
1.350401
0.622102
1.649763
0.639876
0.416149
1.129060
0.627194
1.718116
0.848469
1.399862
0.108753
0.849327
0.934922
0.273529
0.838364
1.038693
1.180760
1.150604
0.680704
0.426200
0.482597
-0.232242
0.259541
0.242246
-0.379178
0.428209
0.595098
1.100176
0.820178
-0.201455
1.012909
0.692988
-0.289933
0.314854
-0.249968
-0.203555
-0.694328
0.119775
0.236321
0.392530
-0.724908
0.113879
0.518057
0.204895
0.077307
-0.264636
-0.028465
0.037023
0.346827
0.661229
1.038928
0.433947
-0.071718
-0.084435
-0.094008
0.074803
-0.139277
-0.135594
-0.097702
-0.108562
-0.880365
0.274838
-0.676770
0.391169
0.946151
-0.100060
-0.119829
0.547575
-0.348875
0.796205
-0.253837
0.164942
0.166320
-0.368916
-0.181155
-0.603960
-0.100163
-0.164998
-0.416811
0.219731
0.390248
-0.823781
-0.346447
-1.071246
-0.299900
-0.636539
-0.353834
0.103503
-1.195773
-1.241052
-1.058198
-0.536828
-0.684851
-0.749359
-1.086291
-1.225954
-0.843823
-0.330708
-1.541742
-1.171225
-0.575982
-0.861604
-1.424575
-1.164207
-1.058145
0.084011
-1.083142
-0.871812
-0.553053
-1.532505
-0.576493
-0.619977
-0.574113
-0.890474
-1.073270
-0.998572
-0.307040
-0.584796
-0.021318
-0.431825
0.142881
-0.851807
0.242762
0.416600
0.479808
-0.316012
-0.312318
0.425621
0.551909
0.241786
0.162742
0.584572
0.867612
0.715875
0.660202
0.582202
1.278203
1.145083
0.544253
1.153351
1.117213
1.380592
1.079911
1.764487
1.271140
1.067918
1.366847
1.506559
0.700296
1.527989
1.105550
1.483295
0.885950
0.482254
0.907527
0.292637
0.573212
0.821233
-0.133489
1.006642
0.828598
0.518170
0.323681
-0.448349
0.405140
0.670781
0.472677
0.875283
0.437770
0.099732
1.034558
0.743346
0.291612
0.519287
-0.345277
0.695913
0.088835
1.175306
0.384504
-0.380672
0.172755
-0.221810
0.227193
0.340460
-0.354043
-0.176098
0.173744
0.472744
0.098629
-0.558768
-0.167569
0.280260
-0.790559
-0.174051
0.158654
0.271254
-0.334190
-0.405352
0.375219
-0.090417
-0.353831
0.074826
-0.056374
-0.303330
-0.589040
0.493072
-0.263108
-0.459209
-0.067057
-0.281208
-0.601191
0.169214
-0.236389
0.891333
-0.187296
-0.163202
0.324416
-0.899300
-0.522052
-0.162680
0.640004
-0.747293
-0.871324
-0.203945
-0.868067
-0.367983
-0.374459
-0.266166
-0.664108
-1.655497
-0.254818
-0.669560
-1.032833
-1.002688
-0.570880
-0.933889
-1.182399
-1.710318
-0.839033
-1.519075
-1.006514
-1.379058
-1.400279
-1.269185
-1.089129
-1.210792
-1.394387
-1.212378
-1.201477
-0.706508
-1.234100
-0.945855
-0.343604
-0.716792
-1.208082
-0.078096
-1.276434
-0.635633
-1.273941
-0.287456
-0.255391
-0.645783
0.387820
0.003987
-0.747666
-0.359673
-0.273473
-0.245908
